#wavelength[angstroms] transmission[photons cm^-2 s^-1 sr^-1 A^-1]
170 1.725814921688727e-16
171 2.116538653547859e-14
172 3.0723869744048625e-14
173 4.009431994470965e-14
174 4.4599051874954175e-14
175 5.325947941964659e-14
176 6.950304846783295e-14
177 9.7373169460036e-14
178 1.5722868852670045e-13
179 2.677599786616459e-13
180 4.724695191952922e-13
181 7.628976573716742e-13
182 1.2101846436779283e-12
183 1.820185318008886e-12
184 2.5500638795890627e-12
185 3.3278059671339694e-12
186 4.19131859719764e-12
187 5.005206101567153e-12
188 5.667243447105235e-12
189 6.303977342276601e-12
190 6.648689184031867e-12
191 6.7677321164473385e-12
192 6.648689184031867e-12
193 5.977137632990975e-12
194 5.094822926054208e-12
195 4.117594216871555e-12
196 3.3873894083014055e-12
197 2.292494408947497e-12
198 1.5514988038209933e-12
199 1.1272574685951825e-12
200 8.33684883321228e-13
201 6.502825789984821e-13
202 5.163086977356697e-13
203 4.247476856649802e-13
204 3.556802333248357e-13
205 3.086048147476433e-13
206 2.6305013901448925e-13
207 2.282346102314028e-13
208 1.9802702824122472e-13
209 1.687952838651489e-13
210 1.4645468717938686e-13
211 1.2707094005036188e-13
212 1.1222673781498042e-13
213 9.911660900281848e-14
214 8.75379822267834e-14
215 7.869619911552393e-14
216 8.153949462703269e-14
217 7.731195013056503e-14
218 7.461606978696374e-14
219 7.201419523179126e-14
220 6.828050499846014e-14
